"","SampleName","nCNV","meanCNVSize","Std.deviation","minCNVsize","maxCNVsize","nDel","meanDelSize","Del.Std.deviation","minDelSize","maxDelSize","nDup","meanDupSize","Dup.Std.deviation","minDupSize","maxDupSize","MeanTargetExons"
"1","CPF1307007_P-PSeq_0029-P-A_1","52","6149.59615384615","11457.1325969247","320","59589","34","3262.94117647059","5579.45805960213","320","27741","18","11602.1666666667","16888.5529636462","376","59589","2.34615384615385"
"2","CPF1308003_P-PSeq_0038-P-A_1","51","16666.7843137255","40022.3455286237","218","189514","29","12324.6206896552","29363.8500010932","218","151858","22","22390.5454545455","51027.200481916","320","189514","3.45098039215686"
"3","CPF1309006_P-Pseq_0042-P-A_1","57","13821.0526315789","32563.5067781959","320","202405","30","8643.33333333333","13818.1016544724","320","52455","27","19574.0740740741","44784.2019028052","320","202405","3"
"4","CPF1309006_P-Pseq_0043-P-A_1","49","12977.9387755102","20901.5995115686","320","107689","26","14709.6538461538","18027.4113592436","320","54713","23","11020.347826087","24006.9032469805","320","107689","3.24489795918367"
"5","CPF1309006_P-Pseq_0045-P-A_1","64","11535.96875","16599.424813107","218","84476","39","11423.3846153846","15506.9088365144","320","54713","25","11711.6","18506.9480713776","218","84476","3.625"
"6","CPF1312008_P-Pseq-0071-P-A_1","44","26799.5681818182","140189.336222091","320","932894","24","43402.25","189627.355931311","320","932894","20","6876.35","13534.7416216856","320","54713","4.77272727272727"
"7","CPF1312008_P-Pseq-0073-P-A_1","49","10351.5102040816","14141.3549152277","320","54713","26","9834.38461538462","13547.9794362906","320","47704","23","10936.0869565217","15068.6817813788","320","54713","3.26530612244898"
"8","CPF1312008_P-Pseq-0074-P-A_1","56","13691.1607142857","26322.2826157036","320","153666","30","16449.5666666667","29726.6714557858","320","153666","26","10508.3846153846","21899.0595945614","320","84042","3.375"
"9","CPF1403007_P-Pseq-0075-P-A_1_1","46","30235.6739130435","135361.793039749","319","919283","27","43259","175517.152525812","319","919283","19","11728.8421052632","26327.7323373898","319","104090","4.1304347826087"
"10","CPF1403007_P-Pseq-0090-P-A_1_1","49","14363.0204081633","32701.5456250986","320","189514","29","11436.2068965517","24673.9822519582","320","124581","20","18606.9","42099.8748427943","320","189514","3.3469387755102"
"11","CPF1403007_P-Pseq-0091-P-A_1_1","59","5457.66101694915","11420.4413490568","320","57565","29","5195.68965517241","11532.7227924454","320","57565","30","5710.9","11502.2011007489","320","54713","2.3728813559322"
"12","CPF1403007_P-Pseq-0092-P-A_1_1","49","15499.2040816327","36019.7107821882","320","202405","28","12678.8571428571","29157.3689519658","320","137962","21","19259.6666666667","44046.7626680251","320","202405","3.3265306122449"
"13","CPF1403007_P-Pseq-0093-P-A_1_1","51","9605.19607843137","17137.4133941148","320","76029","31","7432.25806451613","13929.0961084289","320","52455","20","12973.25","21139.5216643463","320","76029","2.94117647058824"
"14","CPF1403012_P-Pseq-0095-P-A_1_1","114","4662.14035087719","9721.41086384415","151","54713","63","4533.74603174603","9220.40158136057","151","47704","51","4820.74509803922","10397.9394859619","319","54713","2.14035087719298"
"15","CPF1403012_P-Pseq-0096-P-A_1_1","70","7407.77142857143","12819.4869860178","151","55302","42","8854.28571428571","14782.8253616308","151","55302","28","5238","8944.05800269405","320","42017","2.42857142857143"
"16","CPF1404001_P-Pseq-0051-P-A_1_1","78","7619.39743589744","15594.5632703593","151","108208","54","6881.62962962963","11087.1789431235","151","48811","24","9279.375","22950.8764023483","320","108208","2.26923076923077"
"17","CPF1404001_P-Pseq-0098-P-A_1_1","63","9718.44444444445","22184.8829915253","151","134620","44","7219.75","15917.713766138","151","75394","19","15504.8947368421","32239.1452755717","320","134620","2.66666666666667"
"18","CPF1404001_P-Pseq-0099-P-A_1_1","66","8372.77272727273","24575.3491736962","151","189514","44","5401","10716.4864946818","151","53757","22","14316.3181818182","39732.8006640386","320","189514","2.6969696969697"
"19","CPF1404001_P-Pseq-0100-P-A_1_1","81","13585.0740740741","28186.6235782941","151","189514","54","11124.8888888889","21669.4783993669","151","134620","27","18505.4444444444","38074.4915146948","320","189514","3.20987654320988"
"20","CPF1404001_P-Pseq-0101-P-A_1_1","59","7342.35593220339","16169.3696140559","151","108197","39","7236.61538461538","17892.3876236374","151","108197","20","7548.55","12560.3827651825","319","54713","2.52542372881356"
"21","CPF1404001_P-Pseq-0102-P-A_1_1","58","13176.9310344828","26166.889643387","151","147765","29","9666.34482758621","21371.5419563291","151","103585","29","16687.5172413793","30192.622927772","320","147765","3.01724137931034"
"22","CPF1405001_P-Pseq-0097-P-A_1_1","47","15675.9574468085","30436.7539754713","320","151858","24","15341.7083333333","31612.2855541119","320","151858","23","16024.7391304348","29866.3649722581","320","138754","4.17021276595745"
"23","CPF1405001_P-Pseq-0103-P-A_1_1","44","11001.5454545455","27166.141900205","320","172918","22","8271.90909090909","12140.1835434038","320","35145","22","13731.1818181818","36717.1057807904","320","172918","2.90909090909091"
"24","CPF1405001_P-Pseq-0104-P-A_1_1","38","8556.28947368421","13555.3448557085","319","48325","23","8163.39130434783","14077.6036110849","320","48325","15","9158.73333333333","13173.8972510397","319","36175","2.39473684210526"
"25","CPF1405001_P-Pseq-0105-P-A_1_1","46","8473.15217391304","12645.2841187138","320","54713","27","8012.96296296296","10941.7852413492","320","45745","19","9127.1052631579","15035.1659263458","324","54713","3.02173913043478"
"26","CPF1405001_P-Pseq-0106-P-A_1_1","74","10281.2027027027","21411.6008576453","224","151858","36","10884.4444444444","27050.7477736034","224","151858","38","9709.71052631579","14547.9828339039","319","54713","3.18918918918919"
"27","CPF1405001_P-Pseq-0107-P-A_1_1","49","14116.9591836735","26846.5757701356","320","151858","27","10155.4074074074","17222.199730534","320","53757","22","18978.8636363636","35145.9354763012","326","151858","3.63265306122449"
"28","CPF1405001_P-Pseq-0108-P-A_1_1","46","17040.9347826087","32488.3490017932","320","151858","23","18960.4782608696","33904.5560599826","320","151858","23","15121.3913043478","31650.2670486208","320","138754","3.82608695652174"
"29","CPF1405005_P-Pseq_0109-P-A_1_1","48","9825.66666666667","15250.6980200675","320","74556","30","11479.5666666667","17431.8564597502","320","74556","18","7069.16666666667","10572.9631566446","320","34101","2.9375"
"30","CPF1406003_P-Pseq-0110-P-A_1_1","182","2685.00549450549","8486.01606641937","176","63457","142","2551.01408450704","7921.65067061897","176","52455","40","3160.675","10345.9982215038","320","63457","1.41208791208791"
"31","CPF1406003_P-Pseq-0111-P-A_1_1","189","3141.28042328042","8355.62124781287","151","54713","150","2924.39333333333","8063.11538363976","151","52455","39","3975.46153846154","9464.934339156","320","54713","1.65079365079365"
"32","CPF1406003_P-Pseq-0113-P-A_1_1","148","4627.17567567568","18004.5003341346","151","189514","103","2689.96116504854","8605.64727478909","151","54153","45","9061.24444444444","29705.6415074764","320","189514","1.66891891891892"
"33","CPF1406005_P-Pseq-0115-P2-A_1_1","49","10616.7959183673","14518.0654788835","320","54713","28","11353.6428571429","15138.4075834951","320","48704","21","9634.33333333333","13953.6073054008","320","54713","3.30612244897959"
"34","CPF1406005_P-Pseq-0116-P-A_1_1","72","22622.9583333333","122201.973215373","320","1040186","40","9228.55","13545.2047602624","320","52455","32","39365.96875","182894.605140719","320","1040186","2.93055555555556"
"35","CPF1407005_P-Pseq-0112-P-A_1_1","50","16692","40012.0094027903","218","240453","27","9946.22222222222","16592.305441734","218","54377","23","24610.9565217391","55848.0846432195","320","240453","4.08"
"36","CPF1407005_P-Pseq-0115-P1-A_1_1","47","10908.5744680851","16579.1673779301","218","68760","28","9045.53571428571","14197.7902596825","218","48704","19","13654.1052631579","19665.2149997986","376","68760","3.19148936170213"
"37","CPF1407005_P-Pseq-0117-P1-A_1_1","52","18535.8461538462","28770.7083540109","218","134620","27","14488.5185185185","20303.7469777424","218","82779","25","22906.96","35693.8322116954","320","134620","4.42307692307692"
"38","CPF1407005_P-Pseq-0117-P2-A_1_1","63","10331.3015873016","18760.7280385546","176","81145","33","8174.33333333333","12234.9010204074","218","52455","30","12703.9666666667","24003.7612318302","176","81145","3.31746031746032"
"39","CPF1407005_P-Pseq-0120-P-A_1_1","46","10024","29283.3863152623","218","189514","27","4916.40740740741","9441.08386565889","218","35058","19","17282.1578947368","43821.2706054227","320","189514","2.41304347826087"
"40","CPF1407005_P-Pseq-0121-P-A_1_1","39","7344.28205128205","14069.651587256","218","64775","21","8333.42857142857","17242.9379792755","218","64775","18","6190.27777777778","9491.16537693967","319","35896","2.41025641025641"
"41","CPF1407005_P-Pseq-0122-P-A_1_1","37","44176","210178.981044992","218","1285097","21","9426.19047619048","13904.3100606217","218","52001","16","89785.125","319144.600333846","320","1285097","7.48648648648649"
"42","CPF1407005_P-Pseq-0123-P-A_1_1","57","16853.6666666667","29719.8167211791","218","189514","36","15593.6111111111","21039.6303719267","218","90718","21","19013.7619047619","41118.4410184831","319","189514","3.19298245614035"
"43","CPF1407005_P-Pseq-0124-P-A_1_1","46","10361.5217391304","16425.8321388925","320","74267","24","6168.125","7738.24239291596","320","23310","22","14936.1363636364","21692.3106483895","320","74267","3.80434782608696"
"44","CPF1407005_P-Pseq-0125-P-A_1_1","59","10920.7627118644","20449.4035612702","320","105973","36","9093.66666666667","15878.1725342865","320","75394","23","13780.5652173913","26217.5986571583","320","105973","3.13559322033898"
"45","CPF1407014_P-Pseq-0119-P-A_2_1","45","11286.8222222222","31067.4104337421","320","202405","27","6293.07407407407","8747.61962754143","320","28064","18","18777.4444444444","47771.0661202096","320","202405","2.84444444444444"
"46","CPF1407014_P-Pseq-0126-P-A_2_1","46","6519","11818.1351452381","320","52455","24","7482.79166666667","12874.8860661203","320","52455","22","5467.59090909091","10748.0204541031","320","41290","2.82608695652174"
"47","CPF1407014_P-Pseq-0128-P1-A_2_1","52","8064.23076923077","10721.3773873955","320","35908","30","9930.2","11441.624961155","320","35908","22","5519.72727272727","9307.03196606287","320","34101","2.92307692307692"
"48","CPF1407014_P-Pseq-0128-P2-A_2_1","54","7265.09259259259","9959.08226670703","320","34101","32","7912.25","10135.1905340398","320","34056","22","6323.77272727273","9854.74360484919","320","34101","2.57407407407407"
"49","CPF1407014_P-Pseq-0129-P-A_2_1","50","11666.78","18017.1783712327","320","71824","29","10065.8275862069","16120.2861195562","320","71824","21","13877.619047619","20558.6517225138","320","62707","3.14"
"50","CPF1408010_P-Pseq-0130-P-A_1_1","66","8772.12121212121","15138.7069130909","218","54713","32","4927.375","10837.0379888126","218","47704","34","12390.7058823529","17699.356494944","319","54713","2.60606060606061"
"51","CPF1408010_P-Pseq-0132-P-A_1_1","48","9082.33333333333","14401.8971509346","320","62838","29","7813.37931034483","13707.9588311051","320","48811","19","11019.1578947368","15579.7032858038","320","62838","2.83333333333333"
"52","CPF1410001_P-Pseq_0094-P-A_1_1","54","68855.8518518519","437818.919794578","319","3222340","30","7431.43333333333","10645.2250966089","320","39639","24","145636.375","656120.531644434","319","3222340","7.24074074074074"
"53","CPF1410001_P-Pseq_0133-P-A_1_1","47","28445.4042553192","97505.3426056099","320","650318","24","12602.2083333333","28491.1937210494","320","134620","23","44977.4347826087","135906.881289034","320","650318","3.72340425531915"
"54","CPF1410001_P-Pseq_0134-P-A_1_1","51","18017.4117647059","48552.6770706524","319","315390","33","12238.5757575758","26939.1515503346","319","143289","18","28611.9444444444","73373.6299653414","320","315390","4.35294117647059"
"55","CPF1410001_P-Pseq_0135-P-A_1_1","43","7771.97674418605","12558.5934371049","320","58838","22","9393.54545454545","16218.0340559728","320","58838","21","6073.19047619048","7007.8458146498","320","24245","2.67441860465116"
"56","CPF1410001_P-Pseq_0137-P-A_1_1","53","13230.6037735849","29287.1773040035","320","151858","30","7106.53333333333","11805.4689452004","320","54713","23","21218.5217391304","41542.9827165569","320","151858","3.07547169811321"
"57","CPF1410001_P-Pseq_0139-P-A_1_1","64","12338.390625","31928.1668315915","319","202405","36","7348.44444444444","10999.7000230381","320","41290","28","18754.0357142857","46323.7585658304","319","202405","3.125"
"58","CPF1410001_P-Pseq_0140-P-A_1_1","79","11514.5063291139","22877.4751301381","320","151858","48","13660.0416666667","27183.4284069481","320","151858","31","8192.38709677419","13577.3572040055","320","54713","2.9493670886076"
"59","CPF1410001_P-Pseq_0141-P-A_1_1","62","8845.22580645161","13935.3701044563","320","75394","40","9403.05","14627.552879009","320","75394","22","7831","12847.3510517779","320","54713","3.37096774193548"
"60","CPF1410001_P-Pseq_0142-P-A_1_1","46","13553.5217391304","31061.7323640371","319","189514","25","10039","14098.3009555525","320","53757","21","17737.4761904762","43572.1832602167","319","189514","3.65217391304348"
"61","CPF1410001_P-Pseq_0144-P-A_1_1","57","9541.0350877193","17381.8939817157","320","87203","31","6907.38709677419","12045.438814969","320","52576","26","12681.1538461538","21995.5698424793","320","87203","3.19298245614035"
"62","CPF1410001_P-Pseq_0146-P-A_1_1","46","8431.54347826087","12427.2247491037","320","52455","24","9165.54166666667","13923.040119604","320","52455","22","7630.81818181818","10832.0654699979","320","36175","2.76086956521739"
"63","CPF1412001_P-PSeq-0118-P-A_1_1","41","7503.68292682927","11687.7139797289","176","54713","21","4527.14285714286","8009.23301749746","320","23978","20","10629.05","14141.6444717646","176","54713","2.68292682926829"
"64","CPF1412001_P-PSeq-0127-P-A_1_1","48","16634.75","42025.5111556495","320","248369","26","12496.7692307692","31457.0453047424","320","151858","22","21525.0909090909","52235.1695014813","320","248369","2.9375"
"65","CPF1412001_P-PSeq-0147-P-A_1_1","46","10882.7608695652","20478.6867972911","320","91729","23","12893.9130434783","22628.3484592247","320","91729","23","8871.60869565217","18366.1775028772","320","74267","3.43478260869565"
"66","CPF1412001_P-PSeq-0148-P-A_1_1","56","16015.7142857143","42124.8127263015","320","302505","36","19687.3888888889","51174.2731035138","320","302505","20","9406.7","15526.4955787806","320","62116","3.19642857142857"
"67","CPF1412001_P-PSeq-0150-P-A_1_1","52","14612.6346153846","38610.3786636463","320","257145","27","6093.22222222222","10833.2274128944","320","44732","25","23813.6","53580.6963778312","320","257145","3.98076923076923"
"68","CPF1412001_P-PSeq-0151-P-A_1_1","55","32693.3090909091","152357.682303467","320","1127153","32","45007.625","198814.357492961","320","1127153","23","15560.347826087","27426.8214819142","320","121335","2.94545454545455"
"69","CPF1412001_P-PSeq-0154-P-A_1_1","41","22264","65760.3059854499","292","423592","20","34068.85","93090.323222169","320","423592","21","11021.2857142857","12010.1949865223","292","36743","5.63414634146341"
"70","CPF1412001_P-PSeq-0155-P-A_1_1","49","7968.59183673469","19530.5576607086","319","121335","29","6829.65517241379","12782.6605275491","320","52455","20","9620.05","26795.5071557567","319","121335","2.55102040816327"
"71","CPF1412001_P-PSeq-0156-P-A_1_1","59","8705.08474576271","17463.50988864","319","106424","37","7048.05405405405","11497.5560976766","319","47704","22","11491.9090909091","24550.3101365516","320","106424","2.88135593220339"
"72","CPF1412001_P-PSeq-0157-P-A_1","54","12600.6481481481","22815.2731773451","319","134620","29","16138.0344827586","28075.2819595086","320","134620","25","8497.28","14045.1994542619","319","54713","3.09259259259259"
"73","CPF1412001_P-PSeq-0158-P-A_1_1","58","16378.2413793103","41979.4700104916","320","271906","32","6159.5625","8473.70708355577","320","28458","26","28955.0769230769","60256.0304148377","320","271906","4.29310344827586"
"74","CPF1412001_P-PSeq-0159-P-A_1_1","40","24818.575","74600.3671084277","320","474930","24","11831.0416666667","14604.9027458446","320","51679","16","44299.875","116050.80541836","385","474930","6.025"
"75","CPF1412001_P-PSeq-0160-P-A_1_1","51","11984.6274509804","30548.9556744323","320","202405","29","6721.27586206897","11200.8644624822","320","54377","22","18922.6818181818","44339.965866974","320","202405","2.90196078431373"
"76","CPF1412001_P-PSeq-0161-P-A_1_1","46","9615.4347826087","15233.6139400153","319","60831","22","13075.9545454545","19739.4387928071","319","60831","24","6443.29166666667","8736.04789005411","320","32036","2.93478260869565"
"77","CPF1412001_P-PSeq-0162-P-A_1_1","47","10992.4680851064","19877.795246533","320","95097","29","9116.31034482759","14380.5363179926","320","52455","18","14015.1666666667","26699.7414996299","320","95097","2.76595744680851"
"78","P-PSeq_0062-P-A_1","64","9043.296875","14990.0212942654","253","59589","35","8094","13261.583702338","253","47704","29","10189","17015.7205128501","320","59589","2.75"
"79","P-PSeq_0066-P-A_1","59","7739.64406779661","11429.2688301491","320","52455","34","9575.23529411765","13201.3686940978","320","52455","25","5243.24","8049.22887755922","320","34101","2.8135593220339"
"80","P-PSeq_0131-P-A_1","67","8566.0447761194","12914.8985700129","319","48646","32","5557.625","10709.9380400906","320","47704","35","11316.6","14243.9303073274","319","48646","2.7910447761194"
"81","P-PSeq_0136-P-A_1","51","11397.9215686275","14913.6402314702","320","74267","26","14005.7692307692","13274.4490395879","320","48704","25","8685.76","16272.2158404031","320","74267","3.23529411764706"
"82","P-PSeq_0143-P-A_1","64","5362.515625","8996.86552293893","320","35058","34","5309.73529411765","9764.04741993384","320","35058","30","5422.33333333333","8206.67418601484","320","34101","2.078125"
"83","P-PSeq_0145-P-A_1","57","7898.15789473684","21665.0830722662","320","151858","30","11089.0666666667","28960.1791072921","320","151858","27","4352.7037037037","7120.19160186673","320","24855","2.57894736842105"
"84","P-PSeq_0152-P-A_1","45","13404.0888888889","31305.6347330217","320","189514","26","6133.34615384615","11318.065735601","320","47704","19","23353.5263157895","45131.9826304146","353","189514","3.2"
"85","P-PSeq_0163-P-A_1","43","8059.60465116279","12924.9559272336","320","54713","26","6502.07692307692","10463.1813094224","320","44732","17","10441.7058823529","16046.4096598145","320","54713","2.93023255813953"
"86","P-PSeq_0164-P-A_1","42","6775.64285714286","12522.8684234989","320","55302","27","7599.85185185185","14381.3610586858","320","55302","15","5292.06666666667","8455.52547549037","320","24961","2.4047619047619"
"87","P-PSeq_0165-P-A_1","60","8093.16666666667","13796.227171772","320","77767","38","8204.34210526316","14785.4640656476","320","77767","22","7901.13636363636","12227.9308699989","320","54924","2.85"
"88","P-PSeq_0166-P-A_1","48","10215.875","20017.2814865481","319","114641","28","12287.5357142857","23052.8255703386","320","114641","20","7315.55","14859.7142406292","319","59589","3.27083333333333"
"89","P-PSeq_0168-P-A_1","56","16890.9642857143","44126.9471053127","319","259287","33","7549.75757575758","12835.6906028423","320","52455","23","30293.5652173913","65647.8725542061","319","259287","2.92857142857143"
"90","P-PSeq_0170-P-A_1","54","16341.0555555556","34582.5000424425","320","202651","35","10316.1428571429","15194.817222335","320","53757","19","27439.5789473684","53709.3293823499","320","202651","3.12962962962963"
"91","P-PSeq_0171-P-A_1","39","9236.30769230769","13487.2867763329","320","52455","22","10119.5909090909","15581.879193654","320","52455","17","8093.23529411765","10530.8820293543","320","34101","3.05128205128205"
"92","P-PSeq_0172-P-A_1","49","8793.57142857143","14042.3052357273","320","57609","33","8949.60606060606","13782.4594048454","320","52455","16","8471.75","15019.7328049914","320","57609","2.55102040816327"
"93","P-PSeq_0173-P-A_1","38","15545.0526315789","35727.8214265724","320","189514","18","9964.66666666667","13617.9482129068","320","47704","20","20567.4","47579.3079509858","320","189514","3.57894736842105"
"94","P-PSeq_0174-P-A_1","49","13309.8571428571","24740.5064351291","320","138754","24","10920.9583333333","18744.4319720473","320","63506","25","15603.2","29602.1270280251","320","138754","3.26530612244898"
"95","P-PSeq_0175-P-A_1","76","14979.6447368421","61399.830321091","151","527481","43","8349.95348837209","16237.7993831464","320","75394","33","23618.3333333333","91398.6460764281","151","527481","3.01315789473684"
"96","P-PSeq_0176-P-A_1","190","3622.61578947368","9346.1020047017","218","63273","166","2971.79518072289","7605.63088732016","218","52455","24","8124.125","16691.4622104484","320","63273","1.54210526315789"
"97","P-PSeq_0177-P-A_1","43","11716.3720930233","31531.6386379075","319","202365","23","19829.8260869565","41650.9781219341","320","202365","20","2385.9","4213.8183696775","319","15884","3.46511627906977"
"98","P-PSeq_0178-P-A_1","49","9413.51020408163","17181.537506534","320","91729","28","10629.2857142857","21569.1990198938","320","91729","21","7792.47619047619","8695.00397135647","320","24961","3.02040816326531"
"99","P-PSeq_0179-P-A_1","52","9800.05769230769","21930.6455538448","320","134620","29","7864.41379310345","14299.6979926082","320","55302","23","12240.652173913","29043.4482090801","320","134620","2.59615384615385"
"100","P-PSeq_0180-P-A_1","56","14609.9642857143","23696.2260784779","320","144686","27","11599.7777777778","14839.2863640699","320","52455","29","17412.5517241379","29692.0888003452","320","144686","3.41071428571429"
"101","P-PSeq_0181-P-A_1","71","32021.9718309859","165191.83570564","319","1382329","28","55741.1071428571","260263.174527224","319","1382329","43","16576.9534883721","36278.2974556897","320","189514","3.47887323943662"
"102","P-PSeq_0182-P-A_1","55","16104.3636363636","26041.755323841","320","151858","33","18739.1515151515","29689.144890348","320","151858","22","12152.1818181818","19324.7545161181","320","74267","3.45454545454545"
"103","P-PSeq_0183-P-A_1","54","8045.7037037037","12902.6995619531","320","53757","29","8955.72413793103","16177.0720816676","320","53757","25","6990.08","7756.75174133262","320","23512","3"
"104","P-PSeq_0184-P-A_1","75","12711.9733333333","29260.8857308872","320","196395","42","7848.19047619048","12417.3200365322","320","54377","33","18902.2424242424","41374.3827121855","320","196395","3.14666666666667"
"105","P-PSeq_0185-P-A_1","56","9127.05357142857","16606.2875862451","320","76029","36","7728","14169.510871687","320","75394","20","11645.35","20446.15006168","320","76029","2.89285714285714"
"106","P-PSeq_0186-P1-A_1","56","9157.5","14452.6514170175","320","56878","30","9407.13333333333","12527.1637534498","320","47704","26","8869.46153846154","16653.3607064298","320","56878","3"
"107","P-PSeq_0186-P2-A_1","57","7954.61403508772","11415.5047362824","320","47704","32","9819.15625","13173.0150469212","320","47704","25","5568","8328.02770768686","320","34101","3.17543859649123"
"108","P-PSeq_0188-P-A_1","45","8210.37777777778","12526.3627516474","320","54713","29","8191.34482758621","11207.9929332211","320","47704","16","8244.875","15025.9000922851","320","54713","3.06666666666667"
"109","Pseq_batch10_P-PSeq_0020-P-A_1","45","12170.6","21632.40085066","320","108197","30","13170.4666666667","23555.8913514416","320","108197","15","10170.8666666667","17745.7786202267","320","63273","2.82222222222222"
"110","Pseq_batch10_P-PSeq_0021-P-A_1","52","13520.1346153846","23924.7186120923","320","138577","35","11439.8857142857","16394.9402287475","320","57565","17","17803","34990.8129263954","320","138577","2.84615384615385"
"111","Pseq_batch10_P-PSeq_0022-P-A_1","51","21773.0980392157","65992.0684771299","320","401209","26","8850.07692307692","13530.3959910213","320","47704","25","35213.04","92266.1339461741","320","401209","4.43137254901961"
"112","Pseq_batch11_P-Pseq_0024-P-A_1","53","14501.4528301887","23469.2162356155","320","101902","29","13548.9655172414","23165.2567844957","320","91729","24","15652.375","24279.2608669326","324","101902","4.11320754716981"
"113","Pseq_batch11_P-Pseq_0025-P-A_1","50","19693.08","75591.2864830116","320","523992","22","8876.18181818182","17955.4310967498","320","75394","28","28192.0714285714","99744.3218741942","320","523992","5.02"
"114","Pseq_batch11_P-Pseq_0026-P-A_1","45","11703.7111111111","17247.3497853784","320","57117","31","12990.6129032258","18252.2948304725","320","55302","14","8854.14285714286","15011.0706165465","320","57117","3.26666666666667"
"115","Pseq_batch12_P-Pseq-0030-P-A_1","60","12783.3666666667","28421.0959687811","320","172918","31","14289.8064516129","32981.5537145835","320","172918","29","11173.0344827586","23051.746445277","320","114641","3.43333333333333"
"116","Pseq_batch12_P-Pseq-0041-P-A_1","83","9188.49397590362","17438.8991879407","117","84042","69","9197.31884057971","16575.7355035932","117","83133","14","9145","21933.5963482788","326","84042","3.39759036144578"
"117","Pseq_batch12_P-Pseq_0017-P-A_1","41","10039.6097560976","14979.40746972","320","65333","29","11019.5862068966","16546.2635413498","320","65333","12","7671.33333333333","10506.8956779764","324","33688","3.21951219512195"
"118","Pseq_batch12_P-Pseq_0023-P-A_1","51","7638.92156862745","14435.9181126011","320","61773","28","9214.10714285714","17750.7488132907","320","61773","23","5721.30434782609","8940.02893749019","320","34101","2.13725490196078"
"119","Pseq_batch12_P-Pseq_0027-P-A_1","48","15306.8541666667","39046.4127760849","253","202405","32","12205.5625","33063.9220805821","253","181028","16","21509.4375","49560.744060824","320","202405","3.54166666666667"
"120","Pseq_batch12_P-Pseq_0033-P-A_1","60","8466.3","12408.7806531627","320","54713","39","8364.23076923077","12198.4832652121","320","54713","21","8655.85714285714","13093.9256003909","320","34101","3.18333333333333"
"121","Pseq_batch12_P-Pseq_0034-P-A_1","48","85519.0416666667","218988.238749079","320","1275815","25","9830.08","15083.1205489227","320","52455","23","167789.652173913","297685.769096696","385","1275815","11.6666666666667"
"122","Pseq_batch12_P-Pseq_0035-P-A_1","45","15075.9555555556","31216.1370520525","320","189514","26","7635.07692307692","12480.2493498266","320","47704","19","25258.2105263158","44454.9336076923","320","189514","3.17777777777778"
"123","Pseq_batch12_P-Pseq_0036-P-A_1","70","9322.91428571429","16382.3798104371","320","89293","37","6814","12277.3802829069","320","52455","33","12135.9393939394","19841.4987225943","320","89293","2.75714285714286"
"124","Pseq_batch12_P-Pseq_0037-P-A_1","46","9222.5","12944.0697116479","320","47704","28","12264.1428571429","14186.6304973283","320","47704","18","4491.05555555556","9215.28936363669","320","36743","3.1304347826087"
"125","Pseq_batch12_P-Pseq_0039-P-A_1","56","15755.8928571429","41934.691513733","218","257145","34","10647.7941176471","27407.066822351","218","151858","22","23650.2272727273","57599.7874780569","320","257145","2.92857142857143"
"126","Pseq_batch13_P-Pseq-0046-P-A_1","45","12300.4888888889","24388.4210572281","319","134620","30","17270.7","28676.8009146767","320","134620","15","2360.06666666667","2663.31317472555","319","8507","3"
"127","Pseq_batch13_P-Pseq-0047-P-A_1","48","13465.3958333333","24534.126555907","176","152918","31","12536.935483871","15035.4380624255","176","51626","17","15158.4705882353","36600.0448516078","324","152918","3.5"
"128","Pseq_batch13_P-Pseq_0040-P-A_1","53","16715.7547169811","40543.710322178","320","274060","26","16700.2692307692","22346.0977095469","320","75394","27","16730.6666666667","52985.3001813493","320","274060","3.75471698113208"
"129","Pseq_batch14_P-Pseq-0032-P-A_1","45","16420.8","34801.6160835567","320","186875","28","9113.07142857143","14054.7672179323","320","54713","17","28457.0588235294","52439.9222592752","320","186875","4.06666666666667"
"130","Pseq_batch14_P-Pseq-0048-P-A_1","44","10497.2272727273","29320.8309956032","320","192954","25","6694.92","8616.11215456252","320","25270","19","15500.2631578947","43683.7535053456","320","192954","2.75"
"131","Pseq_batch14_P-Pseq-0050-P-A_1","47","16388.3191489362","31926.6330480875","320","199877","27","10974.3333333333","16658.3575305426","320","54713","20","23697.2","44611.4418891788","326","199877","3.34042553191489"
"132","Pseq_batch15_P-Pseq-0053-P-A_1","57","9835.75438596491","14104.2040899168","319","57565","30","9208.4","14719.3925746111","320","57565","27","10532.8148148148","13632.4256406922","319","44895","3.35087719298246"
"133","Pseq_batch15_P-Pseq-0054-P-A_1","48","22253.1041666667","57652.158068976","320","331832","31","14062.9677419355","26742.0407492072","320","134620","17","37188.0588235294","89753.768386396","320","331832","3.66666666666667"
"134","Pseq_batch16_P-Pseq-0018-P-A_1","46","39099.1304347826","185582.454157068","320","1262753","28","11483.1071428571","16625.4889236695","320","54713","18","82057.3888888889","295834.181897491","320","1262753","7.3695652173913"
"135","Pseq_batch16_P-Pseq-0049-P-A_1","47","20079.9787234043","54293.147195287","320","348801","30","19236.5666666667","63322.1250017463","320","348801","17","21568.3529411765","34691.7269153273","320","134620","3.95744680851064"
"136","Pseq_batch16_P-Pseq-0052-P-A_1","75","10292.0533333333","15776.0855315829","320","82987","43","10317.6744186047","17469.50537327","320","82987","32","10257.625","13440.0732230868","320","54713","2.97333333333333"
"137","Pseq_batch16_P-Pseq-0055-P-A_1","42","15161.2142857143","33003.3373874379","320","189514","24","6508.25","12092.826045258","320","45745","18","26698.5","46716.706279005","320","189514","4.07142857142857"
"138","Pseq_batch16_P-Pseq-0056-P-A_1","45","10193.3333333333","15063.0774563017","320","54713","29","9469.10344827586","16502.5476525484","320","54713","16","11506","12423.9093042408","320","35896","3.15555555555556"
"139","Pseq_batch16_P-Pseq-0057-P-A_1","49","32729.8979591837","113369.154239819","320","578297","30","8302.23333333333","13973.7323444144","320","53757","19","71299.8947368421","177183.812805263","320","578297","5.91836734693878"
"140","Pseq_batch16_P-Pseq-0059-P-A_1","64","13709.109375","28683.533047708","319","202405","36","10474.6388888889","16336.6182514756","319","60831","28","17867.7142857143","39266.9422286663","320","202405","3.453125"
"141","Pseq_batch16_P-Pseq-0060-P-A_1","45","13544.6888888889","29984.211664279","320","189514","23","10424.8260869565","14854.130131663","320","52455","22","16806.3636363636","40382.8209356233","324","189514","3.44444444444444"
"142","Pseq_batch17_P-PSeq0061-P-A_1","55","15946.6545454545","30092.3730790145","320","194681","31","11682.7419354839","16700.7167250745","320","53757","24","21454.2083333333","41305.1877623761","320","194681","3.56363636363636"
"143","Pseq_batch17_P-PSeq0063-P-A_1","49","16891.9591836735","48728.8076051867","320","339254","28","9712.10714285714","11476.3686905497","320","44732","21","26465.0952380952","73161.3968544237","320","339254","4.89795918367347"
"144","Pseq_batch17_P-PSeq0064-P-A_1","48","14931.6458333333","29279.1800100923","319","138577","29","7243","11724.6665441465","319","52455","19","26666.9473684211","42237.1858891002","385","138577","3.97916666666667"
"145","Pseq_batch17_P-PSeq0065-P-A_1","54","21378.6296296296","60193.0438801557","320","404354","34","10521.6764705882","13903.3849415008","320","47704","20","39835.45","95924.8382852429","320","404354","5.2962962962963"
"146","Pseq_batch17_P-PSeq0067-P-A_1","56","17591.4107142857","36540.9978267384","320","152918","33","13571.6060606061","26801.1353245289","320","134620","23","23358.9565217391","47268.3319661447","320","152918","3.17857142857143"
"147","Pseq_batch17_P-PSeq0068-P-A_1","60","13754.3833333333","25891.47531727","320","138754","28","9253.32142857143","15269.6273767958","320","52574","32","17692.8125","32225.3923607211","320","138754","3.83333333333333"
"148","Pseq_batch17_P-PSeq0069-P-A_1","44","11258.5227272727","30920.04660372","320","192990","28","6398.82142857143","12788.0457229154","320","57565","16","19763","48219.0919422311","320","192990","3.77272727272727"
"149","Pseq_batch17_P-PSeq0070-P-A_1","43","13014.7209302326","32453.3817522668","320","202405","23","11496.8695652174","16970.4945883472","320","75394","20","14760.25","44594.9299972601","320","202405","3.25581395348837"
"150","Pseq_batch18_P-Pseq_0058-P-A_1","53","8761.79245283019","13735.8920510051","320","60943","32","9549.96875","15178.6231142404","320","60943","21","7560.7619047619","11442.9155633727","320","42017","3.30188679245283"
"151","Pseq_batch18_P-Pseq_0076-P-A_1","52","15558.1730769231","36105.649551261","320","189514","32","9529.0625","16477.6654291792","320","57565","20","25204.75","53823.9150044652","320","189514","3.03846153846154"
"152","Pseq_batch18_P-Pseq_0077-P-A_1","48","13257.25","24890.2530034242","320","151858","30","16652.0333333333","29485.518391101","320","151858","18","7599.27777777778","13247.0158362312","320","54713","2.79166666666667"
"153","Pseq_batch18_P-Pseq_0079-P-A_1","45","8065.4","9508.21255164569","320","28529","29","6471.93103448276","8624.69903794178","320","25488","16","10953.5625","10608.1027016694","320","28529","3.13333333333333"
"154","Pseq_batch18_P-Pseq_0081-P-A_1","44","12864.9318181818","25719.0887577715","320","151858","24","15577.0833333333","32546.3415227348","320","151858","20","9610.35","13939.3634879789","324","54713","3.06818181818182"
"155","Pseq_batch19_P-Pseq-0072-P-A_1","45","9767.64444444444","14774.2346873867","320","54713","28","8693.39285714286","11588.1785241087","320","42017","17","11537","19191.4379997956","320","54713","3.17777777777778"
"156","Pseq_batch19_P-Pseq-0078-P-A_1","51","12131.0784313725","18238.4109086764","320","82013","25","10270.8","14446.3706168712","320","52455","26","13919.8076923077","21404.2373281913","320","82013","3.54901960784314"
"157","Pseq_batch19_P-Pseq-0080-P-A_1","64","14672.765625","32976.7912517524","319","189514","40","14606.3","29230.630666986","320","134620","24","14783.5416666667","39113.7136753396","319","189514","3.03125"
"158","Pseq_batch19_P-Pseq-0082-P-A_1","49","10176.612244898","23953.2874073132","227","148579","25","6148.76","9731.49169911787","320","35058","24","14372.2916666667","32597.3814145423","227","148579","2.79591836734694"
"159","Pseq_batch19_P-Pseq-0083-P-A_1","55","10572.8909090909","24430.8702189371","319","159718","38","12344.0526315789","28443.5835275559","319","159718","17","6613.82352941176","10928.1376057136","320","34101","3.23636363636364"
"160","Pseq_batch19_P-Pseq-0084-P-A_1","57","11230.5438596491","19088.1217983389","320","121486","29","14383.5517241379","25030.878895","320","121486","28","7964.92857142857","9176.86259599762","320","34101","3.80701754385965"
"161","Pseq_batch19_P-Pseq-0085-P-A_1","73","8718.28767123288","14067.5609041189","320","54713","37","8034.16216216216","14566.5115257061","320","51121","36","9421.41666666667","13705.9101503694","320","54713","2.61643835616438"
"162","Pseq_batch19_P-Pseq-0086-P-A_1","54","10055.0740740741","14828.6704487431","320","68760","27","10662.2962962963","13306.3258895182","320","44732","27","9447.85185185185","16444.2121258133","320","68760","3.37037037037037"
"163","Pseq_batch19_P-Pseq-0087-P-A_1","51","10464.0784313725","23331.6866727145","320","155139","29","8775.27586206897","11927.2343276594","320","47704","22","12690.2272727273","33125.5868633467","320","155139","2.7843137254902"
"164","Pseq_batch19_P-Pseq-0088-P-A_1","56","10059.25","16452.1238366469","319","68760","34","9649.52941176471","14839.372112085","319","48325","22","10692.4545454545","19030.8302842351","320","68760","2.75"
"165","Pseq_batch19_P-Pseq-0089-P-A_1","45","8874.6","21718.8457800635","218","134620","23","6662.26086956522","12258.255059782","218","47704","22","11187.5","28634.8740004878","320","134620","2.75555555555556"
"166","Pseq_batch5_P-Pseq_0001-P-A_1","52","16300.3461538462","36909.6517622581","319","186936","24","10163.125","16153.2506576782","320","54713","28","21560.8214285714","47841.6775494412","319","186936","3.82692307692308"
"167","Pseq_batch5_P-Pseq_0002-P-A_1","50","8192.52","13454.2855629645","320","68900","33","8464.9696969697","14531.2984461232","320","68900","17","7663.64705882353","11471.6807069691","320","34101","3.02"
"168","Pseq_batch5_P-Pseq_0003-P-A_1","48","10853.1041666667","20403.5462648141","320","114641","26","10817.0769230769","15737.0590821108","320","52576","22","10895.6818181818","25236.8509513679","320","114641","3.58333333333333"
"169","Pseq_batch5_P-Pseq_0004-P-A_1","53","9373.71698113207","22008.7158070627","320","151858","35","10706.9428571429","26449.4438593182","320","151858","18","6781.33333333333","8468.90726335423","320","32932","2.67924528301887"
"170","Pseq_batch5_P-Pseq_0005-P-A_1","44","9374.81818181818","15074.9837753358","320","77767","23","7786.60869565217","9708.23304651137","320","27741","21","11114.2857142857","19463.9659066256","320","77767","3.45454545454545"
"171","Pseq_batch6_P-PSeq0006-P-A_1","60","13093.7333333333","23338.8447776406","320","138754","37","12919.8648648649","18974.0115877279","320","74625","23","13373.4347826087","29521.9554782016","320","138754","3.73333333333333"
"172","Pseq_batch6_P-PSeq0007-P-A_1","50","15717.1","50432.029173342","151","348801","28","18467.75","65734.9067501712","151","348801","22","12216.2727272727","18867.3390840509","320","68760","3.78"
"173","Pseq_batch6_P-PSeq0008-P-A_1","58","12949.9827586207","28998.9132122382","320","151858","33","11367.0606060606","27619.8864338942","320","151858","25","15039.44","31178.3278778171","320","151071","3.06896551724138"
"174","Pseq_batch6_P-PSeq0009-P-A_1","51","12426.137254902","28908.5138587369","320","189514","35","10131.2857142857","15753.9374808732","320","54713","16","17446.125","46732.7434459323","320","189514","3.05882352941176"
"175","Pseq_batch7_P-Pseq_0012-P-A_1","72","11185.0694444444","21103.4840026818","176","151858","43","10523.9069767442","25347.2451802802","320","151858","29","12165.4137931034","12802.625859334","176","48646","3.16666666666667"
"176","Pseq_batch7_P-Pseq_0015-P-A_1","52","10724.5961538462","14868.7065609116","320","54713","36","9590.02777777778","14840.9357877578","320","54713","16","13277.375","15089.7853657146","320","36175","3.23076923076923"
"177","Pseq_batch7_P-Pseq_0016-P-A_1","63","15006.9682539683","32247.1634356285","320","189355","41","9159.43902439024","14331.4097789589","320","54713","22","25904.6363636364","49877.1445707163","320","189355","3.20634920634921"
"178","Pseq_batch8_P-PSeq_0010-P-A_1","57","11539.6842105263","23132.9599652885","320","129846","32","12786.75","26107.5102975271","320","129846","25","9943.44","19066.0742749174","320","88024","3.05263157894737"
"179","Pseq_batch8_P-PSeq_0011-P-A_1","42","6426.21428571429","11441.6290063441","320","65333","23","5356.73913043478","6977.52456897659","320","23978","19","7720.84210526316","15344.3893664505","320","65333","2.69047619047619"
"180","Pseq_batch9_P-Pseq_0013-P-A_1","63","9958.25396825397","25609.567010213","120","189514","39","8215.84615384615","11443.3325554975","320","47704","24","12789.6666666667","39218.336189202","120","189514","3.0952380952381"
"181","Pseq_batch9_P-Pseq_0014-P-A_1","48","10438.5625","17775.2569744195","320","74267","29","10693.9655172414","18301.1905613557","320","72208","19","10048.7368421053","17427.9303445236","326","74267","2.77083333333333"
"182","Pseq_batch9_P-Pseq_0019-P-A_1","51","16753.3333333333","32018.4190163516","218","202405","30","14142.6","18138.3178868802","218","58838","21","20482.9523809524","45399.0143279303","320","202405","3.52941176470588"
